%time,field.x,field.y,field.z
1701935891131110713,0.0,0.0,0.0
1701935891134265153,-4.755570386383856e-09,-6.217599783941362e-09,-8.371952518737087e-09
1701935891136580512,-1.73788542763657e-08,-2.0873876684316703e-08,-2.3856983480085762e-08
1701935891138532817,-3.2591641615525786e-08,-3.6347921544517175e-08,-3.945331092482399e-08
1701935891140531073,-5.219233728705843e-08,-6.01405881020311e-08,-6.860763727884173e-08
1701935891142384924,-8.685940202883038e-08,-1.0255465592580336e-07,-1.166963074703228e-07
1701935891144193054,-1.3721792358676526e-07,-1.550759660077317e-07,-1.687384375326785e-07
1701935891146124212,-1.9108559845424605e-07,-2.092746976326246e-07,-2.2429584864288577e-07
1701935891148653800,-2.731235523630643e-07,-3.0560964083452763e-07,-3.358616918855551e-07
1701935891150970661,-3.935684506910464e-07,-4.4507048476539073e-07,-4.899934317610035e-07
1701935891152886580,-5.289849670914162e-07,-5.922145458111727e-07,-6.447874175286501e-07
1701935891154866442,-6.914219498975398e-07,-7.644981934019638e-07,-8.231493303728482e-07
1701935891157783991,-9.614943780506197e-07,-1.0492274385830476e-06,-1.119990619490446e-06
1701935891160016334,-1.1966597365619218e-06,-1.299017861779232e-06,-1.382365436403607e-06
1701935891161887865,-1.4188153612407293e-06,-1.5329930171765983e-06,-1.624556402099349e-06
1701935891163836542,-1.6681900658803356e-06,-1.792188684641447e-06,-1.8902241191883372e-06
1701935891165887788,-1.9439348633630435e-06,-2.0772107400400356e-06,-2.181133699361933e-06
1701935891167625888,-2.185820342034394e-06,-2.3258778112483705e-06,-2.433934974995074e-06
1701935891169349913,-2.4312857499983374e-06,-2.5785479326047826e-06,-2.6913982461312265e-06
1701935891171230654,-2.7079521692485976e-06,-2.8644808917597247e-06,-2.983904872185812e-06
1701935891173025679,-2.9841180956164986e-06,-3.1493149584833313e-06,-3.2743061708971996e-06
1701935891174747510,-3.259086706347372e-06,-3.432940127485165e-06,-3.564071789839151e-06
1701935891176493289,-3.550662458911296e-06,-3.735059341042086e-06,-3.873998376651855e-06
1701935891179480469,-4.091318437955036e-06,-4.298031186696268e-06,-4.457161763197335e-06
1701935891182173964,-4.640680925817265e-06,-4.875136627650144e-06,-5.05853600907773e-06
1701935891184609062,-5.201254009219961e-06,-5.458635416833024e-06,-5.6569440672976015e-06
1701935891186848414,-5.753730228819933e-06,-6.022821606500645e-06,-6.22666380091448e-06
1701935891188766897,-6.23761254571381e-06,-6.513830181634295e-06,-6.720965776675402e-06
1701935891191499719,-6.936998043947716e-06,-7.225889307064165e-06,-7.441414877571845e-06
1701935891194070228,-7.615348752736523e-06,-7.920192448804333e-06,-8.145629932553254e-06
1701935891195662328,-8.048547984773845e-06,-8.36255634444529e-06,-8.592046494591646e-06
1701935891197665784,-8.600073043989811e-06,-8.922850124495533e-06,-9.154980916536043e-06
1701935891199791339,-9.184977713825734e-06,-9.51621460234786e-06,-9.750260076474096e-06
1701935891202019461,-9.794106088450072e-06,-1.013212520463189e-05,-1.0366075492331808e-05
1701935891204333309,-1.041613629038439e-05,-1.0760758017088206e-05,-1.0996396629291816e-05
1701935891206192513,-1.0911067968899902e-05,-1.1264642973922232e-05,-1.1505972347851317e-05
1701935891208204446,-1.1454691536256211e-05,-1.1820761861684198e-05,-1.2069874160636537e-05
1701935891211162995,-1.2279720369228646e-05,-1.2665291451061798e-05,-1.292658811094315e-05
1701935891214037803,-1.311330906723857e-05,-1.3517647887207008e-05,-1.3789522967443579e-05
1701935891216098919,-1.372886384610681e-05,-1.4146004203912204e-05,-1.4425368584950284e-05
1701935891218014392,-1.4314642683894097e-05,-1.4744651402652638e-05,-1.5031439679114581e-05
1701935891220384988,-1.505931251641119e-05,-1.550285850494346e-05,-1.5795836106985998e-05
1701935891222749359,-1.5815984592794377e-05,-1.6271352907177064e-05,-1.657084117284142e-05
1701935891224996284,-1.6549345778316722e-05,-1.7020424585422027e-05,-1.73308451525593e-05
1701935891227283438,-1.7323555094597678e-05,-1.7812935625615132e-05,-1.8135316999540663e-05
1701935891229494752,-1.8101610154765056e-05,-1.8607739138284737e-05,-1.894042690340885e-05
1701935891231637484,-1.8880199191119198e-05,-1.9401510697490603e-05,-1.974273950169275e-05
1701935891233563279,-1.9597469549723456e-05,-2.0131248153689808e-05,-2.0478937656470347e-05
1701935891235436852,-2.0308232425025314e-05,-2.085352677986249e-05,-2.1206834451357333e-05
1701935891237262717,-2.1011096409527428e-05,-2.1566817117012684e-05,-2.1924805762927394e-05
1701935891239404352,-2.1845992991886222e-05,-2.2414351055799094e-05,-2.277829295079341e-05
1701935891241590987,-2.2710937374430305e-05,-2.3291784352069457e-05,-2.366080349855197e-05
1701935891245105646,-2.4121496931665987e-05,-2.472407046125334e-05,-2.5105577284558157e-05
1701935891247957921,-2.529109935194082e-05,-2.5917494907143132e-05,-2.6315620535667987e-05
1701935891250122238,-2.6204584968893568e-05,-2.6851517007912604e-05,-2.7263645505462e-05
1701935891252327997,-2.716351651927491e-05,-2.783268589212756e-05,-2.826023612409052e-05
1701935891254654580,-2.8209777617991128e-05,-2.8903310037830926e-05,-2.934746625930032e-05
1701935891256879638,-2.9244890181174257e-05,-2.9961066243095705e-05,-3.0418353600624295e-05
1701935891259017147,-3.0263526631827642e-05,-3.099543476823633e-05,-3.1458957291839355e-05
1701935891261241526,-3.1329345566628384e-05,-3.207393860601194e-05,-3.254307156857533e-05
1701935891263499305,-3.241430890549642e-05,-3.3174383713429226e-05,-3.365147630068082e-05
1701935891265728038,-3.349404237869463e-05,-3.426772501829408e-05,-3.474868081416148e-05
1701935891267952998,-3.4570729054968634e-05,-3.535481095160128e-05,-3.5837926440231594e-05
1701935891270177286,-3.564147092536068e-05,-3.6438310765108483e-05,-3.692736955851176e-05
1701935891272432916,-3.6732214286211964e-05,-3.754650968017526e-05,-3.8045919219815404e-05
1701935891274986452,-3.7989468284629754e-05,-3.882736121563075e-05,-3.934134568323814e-05
1701935891277951748,-3.949200281564149e-05,-4.036147886544115e-05,-4.089646010073731e-05
1701935891280010378,-4.056907710507136e-05,-4.1463598842033205e-05,-4.201604792570311e-05
1701935891281904972,-4.159067255718295e-05,-4.250776937476777e-05,-4.307371514645579e-05
1701935891283760319,-4.261227354028155e-05,-4.354645952225247e-05,-4.412062271789351e-05
1701935891285780476,-4.3731965665583824e-05,-4.468187715244672e-05,-4.526450379142829e-05
1701935891288042918,-0.8909908613047577,-0.55415628364908,0.0003409383153775095
1701935891290514718,-0.9174984913313818,-0.5706428724081427,0.0003510085296165019
1701935891292561419,-0.9289588619912375,-0.5777707428879514,0.00035531745003877525
1701935891295033079,-0.9427967771523953,-0.5863773557068845,0.0003604949963009826
1701935891297284433,-0.9554025690240769,-0.5942176407817888,0.00036520222416710113
1701935891299506350,-0.9678441683758781,-0.6019558043133673,0.0003698458782373568
1701935891301718561,-0.9802297046608593,-0.6096591035086837,0.00037445786581202534
1701935891304141679,-0.9937980112811713,-0.6180980477012866,0.0003794871953714694
1701935891307958243,-1.0151664133918712,-0.6313883656034011,0.0003873424835434999
1701935891311031532,-1.032375198308497,-0.6420915881365142,0.0003936071167985439
1701935891313249337,-1.044792895460094,-0.6498149414322311,0.00039810311240686796
1701935891315304782,-1.0563015078300857,-0.6569728829254478,0.0004022533138868092
1701935891317503142,-1.0686111120231108,-0.6646290246457605,0.00040666249676548033
1701935891319878674,-1.0819112904266757,-0.672901285530702,0.00041138533571234617
1701935891322088643,-1.0942863811886694,-0.6805981852675219,0.0004157477465037675
1701935891324315284,-1.1067536114574121,-0.6883524000210844,0.000420120190092083
1701935891326351384,-1.118154224908538,-0.695443221770756,0.000424096431364037
1701935891328772489,-1.131710840157206,-0.7038750222257623,0.00042879092290213115
1701935891330950861,-1.143908488494925,-0.7114615992775896,0.00043298299013532057
1701935891333165188,-1.1563064126128182,-0.7191727521165718,0.0004372161610865757
1701935891336955012,-1.1775272565828228,-0.7323715324446921,0.00044439659258914936
1701935891340194426,-1.195665695920969,-0.7436531670366899,0.0004504717693682755
1701935891342924008,-1.2109499771365924,-0.753159597766759,0.0004555657819533941
1701935891345192771,-1.2236524047491715,-0.7610601851664078,0.00045978628781595554
1701935891347431652,-1.23618930955345,-0.7688578324249659,0.00046392655989335594
1701935891349502459,-1.2477850709487643,-0.7760701236503568,0.0004677267820515322
1701935891351654604,-1.2598347608940745,-0.7835647594505349,0.00047164566117369877
1701935891353972860,-1.2728163126672298,-0.7916390036484424,0.00047583736440746157
1701935891356354213,-1.2861503347787755,-0.7999324840646757,0.0004801216894522752
1701935891358510558,-1.2982241284216771,-0.807442132154175,0.00048399040476356035
1701935891360602303,-1.309937479554305,-0.814727596924298,0.0004877317912737473
1701935891362632312,-1.3213037418668179,-0.8217971862261119,0.0004913458823399473
1701935891364780546,-1.3333335228105767,-0.8292794793527256,0.0004951500404216579
1701935891366911540,-1.3452658698778757,-0.83670118009278,0.0004988984027328074
1701935891369428578,-1.3593596381995687,-0.8454672605289364,0.0005032874704903381
1701935891372671717,-1.3775185922099085,-0.8567618354150865,0.0005088918618735717
1701935891375886247,-1.3955187298805594,-0.8679576425987579,0.0005144062424828658
1701935891378267896,-1.408855651323301,-0.8762530110116017,0.0005184654306344442
1701935891380431889,-1.4209723793072686,-0.8837894462867282,0.0005221302984340346
1701935891382698450,-1.433664528432874,-0.8916837938335822,0.0005259469502199787
1701935891384943413,-1.4462352118736088,-0.8995026002631773,0.0005297029150583436
1701935891387298140,-1.4594200392557812,-0.9077034087635132,0.0005336123084590858
1701935891389498094,-1.4717384545105954,-0.9153653271549719,0.000537243173296891
1701935891391628217,-1.4836670542810557,-0.9227847869533384,0.0005407501367080408
1701935891393830924,-1.4960015138163538,-0.9304566896188377,0.0005443673702841757
1701935891396105316,-1.5087365007760682,-0.9383777281580639,0.0005480742317995767
1701935891398508034,-1.5221911134960302,-0.9467463848525624,0.0005519473880593873
1701935891401229926,-1.5374320754844213,-0.9562261574354939,0.0005562784697150622
1701935891403464890,-1.5499469045233427,-0.9640103107900014,0.0005597927302407034
1701935891405611117,-1.5619651245085637,-0.9714855854689372,0.0005631403423328324
1701935891408485121,-1.5780593255530666,-0.9814961141535568,0.0005675864214174576
1701935891410908785,-1.5916302879220896,-0.9899372101173982,0.000571304674833334
1701935891413170437,-1.6042947649474324,-0.9978144867829941,0.0005747440366908625
1701935891415549026,-1.6176147962174132,-1.0060995308251472,0.0005783263060472428
1701935891417775775,-1.630084416746371,-1.0138556291607517,0.0005816550770776362
1701935891419730280,-1.6410280619588948,-1.0206625769371476,0.0005845613123653604
1701935891421566566,-1.651310854793201,-1.0270584781833993,0.000587281647753868
1701935891423311445,-1.6610823210150782,-1.033136338630341,0.0005898543138194402
1701935891425010079,-1.6705934606820234,-1.0390522844878884,0.0005923375692390703
1701935891426950542,-1.681459739492152,-1.0458111424331908,0.0005951419723745945
1701935891429253705,-1.6943580682962,-1.0538339583059977,0.0005984281205026412
1701935891431945729,-1.7094326508375186,-1.06321042602428,0.0006022313996856362
1701935891434426450,-1.7233243670581908,-1.0718511502093446,0.0006057160396261833
1701935891436465100,-1.73473948619996,-1.0789514225847643,0.0006085656274167857
1701935891438212881,-1.744527125897984,-1.0850393954429904,0.000611001931232127
1701935891440964236,-1.7599342237758633,-1.0946227107152333,0.0006148250598710143
1701935891443534598,-1.7743279914199834,-1.1035757359562093,0.0006183790650457795
1701935891445548412,-1.7856042998968944,-1.1105896814839002,0.0006211571363210706
1701935891447397563,-1.7959593876676634,-1.1170306206973641,0.0006237076782287431
1701935891449278804,-1.8064947158470699,-1.1235836722213461,0.0006262990380377239
1701935891451258955,-1.8175827845034735,-1.1304805376118447,0.0006290145835854986
1701935891453162853,-1.8282449669275775,-1.1371125044693693,0.0006316119297248996
1701935891455097924,-1.8390807254561976,-1.1438524385381212,0.0006342457347457515
1701935891457051855,-1.8500219617660134,-1.1506579816300126,0.0006369009503751484
1701935891459186725,-1.8619778901180826,-1.1580946782530535,0.0006397876547938743
1701935891461676824,-1.875921823979675,-1.1667679433611944,0.0006431287304399256
1701935891464653483,-1.8925907610072419,-1.1771361993342824,0.0006470896011232562
1701935891466757429,-0.8976317290481817,-0.5619556601077281,0.0010228154887311457
1701935891468749197,-0.8982075230593707,-0.5621240987776647,0.001038403151904289
1701935891470321958,-0.8984286230993717,-0.5621887921472701,0.001044369341508896
1701935891472691519,-0.8987617971290378,-0.5622862877565282,0.0010533467181831947
1701935891474376388,-0.898998704918003,-0.5623556186956394,0.0010597230456528067
1701935891476700775,-0.8993255286792274,-0.5624512669535168,0.0010685151668948024
1701935891478376726,-0.8995611701530708,-0.5625202308092346,0.0010748530588377643
1701935891480417421,-0.8998481390195928,-0.5626042199364829,0.0010825637326408117
1701935891482255486,-0.9001065888386668,-0.5626798736300369,0.0010894897893267655
1701935891484109447,-0.9003673047591784,-0.5627562052727698,0.0010964567054362656
1701935891485929501,-0.9006232767659921,-0.5628311580904071,0.0011032830617773058
1701935891487920580,-0.9009033037089403,-0.5629131626552318,0.0011107403575632347
1701935891489823589,-0.9011709657137343,-0.5629915505240433,0.0011178624364856767
1701935891492761760,-0.9015842412025779,-0.5631125967683155,0.0011288356210272395
1701935891496203019,-0.9020682812807655,-0.5632544049450421,0.001141635065096809
1701935891498305296,-0.9023640401141946,-0.5633410735727594,0.001149425786301079
1701935891500731258,-0.9027053428383086,-0.5634411111486002,0.0011583821115293868
1701935891502686780,-0.9029804912287286,-0.5635217772847567,0.0011655759130726883
1701935891504719269,-0.9032664981839996,-0.56360564136608,0.0011730341443768164
1701935891507175726,-0.9036121782566454,-0.5637070176325314,0.001182026941560769
1701935891508787350,-0.9038389979499412,-0.5637735446378797,0.0011879153967919909
1701935891510519074,-0.9040827046368297,-0.5638450304147267,0.0011942347724829426
1701935891512395486,-0.9043467866394577,-0.5639224989049693,0.0012010723843377733
1701935891514249030,-0.9046076926842832,-0.5639990457258712,0.001207813236069119
1701935891516077496,-0.9048650551741412,-0.5640745609678651,0.0012144523709596534
1701935891517958403,-0.9051298083914389,-0.5641522482099744,0.0012212780895664082
1701935891519628879,-0.9053649307025364,-0.5642212420180213,0.0012273377226495908
1701935891522120356,-0.905715640742555,-0.5643241617979026,0.0012363631381204128
1701935891525717586,-0.9062220366875358,-0.5644727921640017,0.0012493632884576103
1701935891528195484,-0.9065708776205531,-0.5645751941706698,0.001258296131896777
1701935891530021600,-0.9068279984885711,-0.5646506828653977,0.001264864017779975
1701935891531997835,-0.9071062476328815,-0.5647323836632763,0.0012719599376925705
1701935891534834170,-0.9075055938055753,-0.5648496490481986,0.0012821336676678758
1701935891537596738,-0.9078945792657562,-0.56496388459805,0.0012920210703356906
1701935891539508582,-0.9081637992869374,-0.5650429632917736,0.0012988397206425038
1701935891541348316,-0.9084228678038077,-0.5651190756458747,0.0013053789438673112
1701935891543270533,-0.9086936103605127,-0.5651986355117358,0.001312185617879426
1701935891545077451,-0.9089481277197538,-0.5652734477448004,0.001318555909090646
1701935891546776397,-0.9091874216848231,-0.5653437983137295,0.0013245286033037032
1701935891548499562,-0.9094301871213752,-0.5654151755919051,0.001330579501249583
1701935891550225140,-0.9096732960688303,-0.5654866594720762,0.0013366304787480918
1701935891552050727,-0.9099304878500742,-0.5655622914675473,0.0013430211725110283
1701935891554328931,-0.9102514484098643,-0.5656566894865593,0.0013509751518043496
1701935891557336455,-0.9106752357643783,-0.5657813577394607,0.001361439997323603
1701935891559844598,-0.9110286402453012,-0.5658853381318416,0.0013701447242050334
1701935891561573013,-0.9112722266684248,-0.5659570137306194,0.0013761342180936764
1701935891563579040,-0.9115549340693109,-0.5660402108177314,0.001383071126618343
1701935891565919568,-0.9118848007711541,-0.566137299105368,0.001391146641149722
1701935891567773319,-0.9121460670608905,-0.5662142076387401,0.0013975246364212291
1701935891570157769,-0.9124821646553002,-0.5663131719445595,0.0014056861130281565
1701935891572811410,-0.9128562647798094,-0.5664233721426258,0.001414704179144967
1701935891575333872,-0.9132119407746486,-0.5665281846730519,0.0014232257420038915
1701935891577854746,-0.9135674224351942,-0.5666329590967765,0.0014317218775136433
1701935891580385875,-0.9139243913239403,-0.5667381668787104,0.001440262767958444
1701935891582849382,-0.9142717675553351,-0.5668405430672131,0.0014485764373086954
1701935891585544709,-0.9146518975846427,-0.5669525841533037,0.001457655438058901
1701935891588326207,-0.9150441537079526,-0.567068215492874,0.0014670005583752354
1701935891591238573,-0.9154548949448209,-0.5671893144122199,0.0014767590274677117
1701935891594073858,-0.9158548018548482,-0.5673072380980094,0.0014862335643465244
1701935891596622807,-0.9162143422186897,-0.5674132727942629,0.0014947307380936933
1701935891599171044,-0.9165738364780561,-0.5675193120261106,0.0015031977089024636
1701935891601371987,-0.9168843219027467,-0.5676109195205844,0.0015104724707206217
1701935891604423372,-0.9173148477126752,-0.5677379890147897,0.0015204996680295484
1701935891607013443,-0.9176803637709334,-0.5678458986086415,0.0015289771580978626
1701935891609611853,-0.9180470485675148,-0.5679541659806955,0.0015374646496818267
1701935891612132738,-0.9184028458480088,-0.5680592282893178,0.0015456850159367172
1701935891614592375,-0.9187499788744807,-0.5681617489457782,0.001553677323218465
1701935891617475524,-0.9191569499770526,-0.5682819747736484,0.0015630009094497106
1701935891620462702,-0.9195786439577115,-0.568406580257783,0.0015726220095906448
1701935891623515810,-0.9200096963414233,-0.5685339723730396,0.0015824256406075231
1701935891626650262,-0.9204522600164871,-0.5686647933803086,0.001592450178998388
1701935891628863145,-0.9207647088205044,-0.568757170913089,0.0015995024671008103
1701935891631424578,-0.9211264308850808,-0.5688641288497925,0.0016076487262419305
1701935891633813661,-0.8899746191967506,-0.5538194335861171,0.0006818777976774339
1701935891636809931,-0.8899527079137346,-0.5538304977640244,0.0006708139434681494
1701935891638760185,-0.8899448029956712,-0.5538345380564129,0.0006667743154575363
1701935891640809294,-0.8899365115341188,-0.553838795138008,0.000662520578963252
1701935891642610822,-0.8899292282439133,-0.5538425414240994,0.0006587787343072047
1701935891644499531,-0.8899215939929562,-0.5538464719493617,0.0006548509244519878
1701935891646352348,-0.8899141126708796,-0.5538503383676117,0.0006509843804470384
1701935891649202606,-0.8899026329898284,-0.553856315287358,0.0006450093534751959
1701935891651702264,-0.8898925923695508,-0.553861581892241,0.0006397451417227757
1701935891653809171,-0.8898841472052786,-0.5538660405208371,0.0006352872176596036
1701935891655914238,-0.8898757288298214,-0.5538705171742232,0.0006308094096361028
1701935891658381422,-0.889865895797273,-0.5538757974244296,0.0006255279713583884
1701935891660599178,-0.8898570865578309,-0.5538805702645293,0.0006207592139634215
1701935891662488030,-0.8898495959526795,-0.5538846427746479,0.0006166930301470837
1701935891664248493,-0.8898426171785838,-0.5538884422934524,0.0006128978213130522
1701935891666111933,-0.8898352388967168,-0.5538924768406152,0.0006088634970837792
